No.,FREQUENCY(MHz),Z,D,Cs
1,0.1000,137.4500,0.04208,-0.000000011589
2,0.1008,138.5040,0.04193,-0.000000011412
3,0.1016,139.5800,0.04159,-0.000000011236
4,0.1024,140.6610,0.0414,-0.000000011063
5,0.1032,141.7650,0.04117,-0.000000010892
6,0.1040,142.8630,0.04084,-0.000000010724
7,0.1048,143.9680,0.04065,-0.000000010559
8,0.1056,145.0950,0.04036,-0.000000010396
9,0.1064,146.2230,0.04014,-0.000000010236
10,0.1073,147.3490,0.03992,-0.000000010079
11,0.1081,148.4960,0.03962,-0.000000009923
12,0.1089,149.6470,0.03933,-0.000000009771
13,0.1098,150.8170,0.03908,-0.00000000962
14,0.1106,151.9890,0.03881,-0.000000009472
15,0.1115,153.1600,0.03862,-0.000000009327
16,0.1124,154.3620,0.03823,-0.000000009182
17,0.1133,155.5720,0.03818,-0.00000000904
18,0.1141,156.7860,0.03779,-0.0000000089
19,0.1150,157.9970,0.03747,-0.000000008763
20,0.1159,159.2290,0.0372,-0.000000008628
21,0.1168,160.4630,0.03709,-0.000000008496
22,0.1177,161.7220,0.03667,-0.000000008364
23,0.1187,162.9810,0.03649,-0.000000008235
24,0.1196,164.2480,0.0362,-0.000000008108
25,0.1205,165.5340,0.03593,-0.000000007983
26,0.1215,166.8340,0.03579,-0.000000007859
27,0.1224,168.1100,0.03545,-0.000000007739
28,0.1234,169.4360,0.0352,-0.000000007619
29,0.1243,170.7490,0.03499,-0.000000007502
30,0.1253,172.0860,0.03472,-0.000000007386
31,0.1263,173.4270,0.03445,-0.000000007272
32,0.1273,174.7870,0.03427,-0.000000007159
33,0.1283,176.1330,0.03408,-0.000000007049
34,0.1293,177.5160,0.03381,-0.00000000694
35,0.1303,178.9120,0.03356,-0.000000006833
36,0.1313,180.2950,0.03337,-0.000000006727
37,0.1323,181.7040,0.03306,-0.000000006624
38,0.1334,183.1390,0.03291,-0.000000006521
39,0.1344,184.5480,0.03259,-0.000000006421
40,0.1354,185.9990,0.03239,-0.000000006321
41,0.1365,187.4480,0.03215,-0.000000006223
42,0.1376,188.9040,0.03195,-0.000000006128
43,0.1386,190.3770,0.0318,-0.000000006033
44,0.1397,191.8680,0.03163,-0.00000000594
45,0.1408,193.3540,0.0313,-0.000000005849
46,0.1419,194.8610,0.03116,-0.000000005758
47,0.1430,196.3960,0.03106,-0.000000005669
48,0.1441,197.9020,0.0308,-0.000000005582
49,0.1453,199.4670,0.03064,-0.000000005496
50,0.1464,201.0050,0.03051,-0.000000005411
51,0.1475,202.5970,0.03023,-0.000000005327
52,0.1487,204.1720,0.02999,-0.000000005245
53,0.1499,205.7680,0.02983,-0.000000005164
54,0.1510,207.3550,0.02973,-0.000000005085
55,0.1522,208.9950,0.02951,-0.000000005006
56,0.1534,210.6150,0.02926,-0.000000004929
57,0.1546,212.2420,0.02908,-0.000000004853
58,0.1558,213.8940,0.02898,-0.000000004778
59,0.1570,215.5620,0.02871,-0.000000004704
60,0.1582,217.2560,0.02856,-0.000000004632
61,0.1595,218.9450,0.0284,-0.00000000456
62,0.1607,220.6450,0.02824,-0.00000000449
63,0.1620,222.3590,0.02809,-0.000000004421
64,0.1632,224.1060,0.0278,-0.000000004352
65,0.1645,225.8500,0.02765,-0.000000004285
66,0.1658,227.6020,0.02762,-0.000000004219
67,0.1671,229.3800,0.02737,-0.000000004154
68,0.1684,231.1580,0.02711,-0.00000000409
69,0.1697,232.9650,0.02697,-0.000000004027
70,0.1710,234.7740,0.02692,-0.000000003965
71,0.1724,236.6090,0.02673,-0.000000003904
72,0.1737,238.4570,0.02656,-0.000000003844
73,0.1751,240.3350,0.02631,-0.000000003784
74,0.1764,242.2020,0.02633,-0.000000003726
75,0.1778,244.0610,0.02616,-0.000000003669
76,0.1792,245.9560,0.02595,-0.000000003612
77,0.1806,247.8980,0.0259,-0.000000003556
78,0.1820,249.8060,0.02565,-0.000000003502
79,0.1834,251.7460,0.02551,-0.000000003448
80,0.1849,253.7350,0.02523,-0.000000003394
81,0.1863,255.6960,0.02523,-0.000000003342
82,0.1878,257.6820,0.02504,-0.000000003291
83,0.1892,259.7060,0.02487,-0.00000000324
84,0.1907,261.7540,0.02464,-0.000000003189
85,0.1922,263.7850,0.02454,-0.00000000314
86,0.1937,265.8340,0.02446,-0.000000003092
87,0.1952,267.8910,0.02432,-0.000000003044
88,0.1967,269.9580,0.02427,-0.000000002998
89,0.1983,272.0910,0.02413,-0.000000002951
90,0.1998,274.2110,0.02397,-0.000000002906
91,0.2014,276.3390,0.02376,-0.000000002861
92,0.2030,278.4650,0.0237,-0.000000002817
93,0.2045,280.6440,0.02357,-0.000000002773
94,0.2061,282.8160,0.02338,-0.000000002731
95,0.2077,285.0210,0.02325,-0.000000002689
96,0.2094,287.2780,0.02318,-0.000000002647
97,0.2110,289.5250,0.02297,-0.000000002606
98,0.2127,291.7600,0.02289,-0.000000002566
99,0.2143,294.0300,0.0229,-0.000000002526
100,0.2160,296.3040,0.02264,-0.000000002488
101,0.2177,298.6720,0.02254,-0.000000002449
102,0.2194,300.9520,0.02244,-0.000000002411
103,0.2211,303.2620,0.02233,-0.000000002374
104,0.2228,305.6470,0.02222,-0.000000002338
105,0.2246,308.0330,0.02205,-0.000000002302
106,0.2263,310.4290,0.02197,-0.000000002266
107,0.2281,312.8230,0.02188,-0.000000002231
108,0.2299,315.2830,0.02177,-0.000000002197
109,0.2316,317.7280,0.02166,-0.000000002163
110,0.2335,320.1930,0.02161,-0.00000000213
111,0.2353,322.7240,0.02134,-0.000000002097
112,0.2371,325.2590,0.02133,-0.000000002064
113,0.2390,327.7870,0.02112,-0.000000002032
114,0.2408,330.3760,0.02112,-0.000000002001
115,0.2427,332.9480,0.02103,-0.00000000197
116,0.2446,335.4980,0.02089,-0.00000000194
117,0.2465,338.0920,0.02078,-0.00000000191
118,0.2484,340.7490,0.02062,-0.00000000188
119,0.2504,343.3910,0.02053,-0.000000001852
120,0.2523,346.0830,0.02039,-0.000000001823
121,0.2543,348.7810,0.02033,-0.000000001795
122,0.2563,351.4900,0.02023,-0.000000001767
123,0.2583,354.2290,0.02012,-0.00000000174
124,0.2603,356.9960,0.02008,-0.000000001713
125,0.2623,359.7580,0.01993,-0.000000001687
126,0.2644,362.5910,0.01973,-0.000000001661
127,0.2665,365.3790,0.01963,-0.000000001635
128,0.2685,368.2260,0.01951,-0.00000000161
129,0.2706,371.1430,0.0195,-0.000000001585
130,0.2727,374.0120,0.01928,-0.000000001561
131,0.2749,376.9300,0.01921,-0.000000001536
132,0.2770,379.9000,0.01908,-0.000000001513
133,0.2792,382.8950,0.01904,-0.000000001489
134,0.2814,385.8230,0.01893,-0.000000001466
135,0.2836,388.8550,0.01886,-0.000000001444
136,0.2858,391.8710,0.01871,-0.000000001421
137,0.2880,394.9180,0.01868,-0.0000000014
138,0.2903,398.0420,0.01848,-0.000000001378
139,0.2925,401.1540,0.01847,-0.000000001357
140,0.2948,404.2390,0.01838,-0.000000001336
141,0.2971,407.4020,0.01837,-0.000000001315
142,0.2994,410.6130,0.01835,-0.000000001295
143,0.3018,413.8230,0.01802,-0.000000001275
144,0.3041,417.0660,0.01812,-0.000000001255
145,0.3065,420.2930,0.01794,-0.000000001236
146,0.3089,423.6170,0.0179,-0.000000001217
147,0.3113,426.8940,0.01778,-0.000000001198
148,0.3137,430.2630,0.01768,-0.000000001179
149,0.3162,433.5610,0.01748,-0.000000001161
150,0.3187,436.9890,0.01733,-0.000000001143
151,0.3211,440.3780,0.01737,-0.000000001126
152,0.3236,443.8180,0.01731,-0.000000001108
153,0.3262,447.3550,0.01721,-0.000000001091
154,0.3287,450.8520,0.01703,-0.000000001074
155,0.3313,454.1960,0.01726,-0.000000001058
156,0.3339,457.8370,0.01698,-0.000000001041
157,0.3365,461.5020,0.01693,-0.000000001025
158,0.3391,465.0520,0.01675,-0.000000001009
159,0.3418,468.6750,0.01662,-0.000000000994
160,0.3444,472.4030,0.01643,-0.000000000978
161,0.3471,476.0380,0.01651,-0.000000000963
162,0.3498,479.7510,0.01646,-0.000000000948
163,0.3526,483.6200,0.01621,-0.000000000934
164,0.3553,487.3630,0.01614,-0.000000000919
165,0.3581,491.2180,0.01601,-0.000000000905
166,0.3609,495.0240,0.01612,-0.000000000891
167,0.3637,498.8760,0.01583,-0.000000000877
168,0.3665,502.8880,0.01584,-0.000000000864
169,0.3694,506.7600,0.01573,-0.00000000085
170,0.3723,510.7190,0.01575,-0.000000000837
171,0.3752,514.7360,0.01563,-0.000000000824
172,0.3781,518.7960,0.01569,-0.000000000811
173,0.3811,522.7870,0.01544,-0.000000000799
174,0.3841,527.0020,0.01539,-0.000000000786
175,0.3870,531.1550,0.01516,-0.000000000774
176,0.3901,535.2880,0.01522,-0.000000000762
177,0.3931,539.4580,0.01483,-0.000000000751
178,0.3962,543.7430,0.01478,-0.000000000739
179,0.3993,547.9950,0.01477,-0.000000000727
180,0.4024,552.2880,0.01475,-0.000000000716
181,0.4055,556.6300,0.01458,-0.000000000705
182,0.4087,561.1120,0.01465,-0.000000000694
183,0.4119,565.5000,0.01447,-0.000000000683
184,0.4151,569.8300,0.01434,-0.000000000673
185,0.4184,574.3690,0.01435,-0.000000000662
186,0.4216,578.7990,0.0145,-0.000000000652
187,0.4249,583.4620,0.01416,-0.000000000642
188,0.4282,588.0040,0.01407,-0.000000000632
189,0.4316,592.6660,0.01397,-0.000000000622
190,0.4349,597.2690,0.01392,-0.000000000613
191,0.4383,602.1280,0.01399,-0.000000000603
192,0.4418,606.8230,0.01387,-0.000000000594
193,0.4452,611.5290,0.01373,-0.000000000585
194,0.4487,616.4560,0.01362,-0.000000000575
195,0.4522,621.2340,0.01372,-0.000000000567
196,0.4557,626.2810,0.01348,-0.000000000558
197,0.4593,631.2050,0.01354,-0.000000000549
198,0.4629,636.1080,0.0135,-0.000000000541
199,0.4665,641.1830,0.01328,-0.000000000532
200,0.4701,646.2410,0.01306,-0.000000000524
201,0.4738,651.3050,0.01313,-0.000000000516
202,0.4775,656.4950,0.0132,-0.000000000508
203,0.4812,661.7470,0.01298,-0.0000000005
204,0.4850,666.9140,0.0129,-0.000000000492
205,0.4888,672.1720,0.01285,-0.000000000484
206,0.4926,677.5970,0.01281,-0.000000000477
207,0.4964,682.9120,0.01259,-0.000000000469
208,0.5003,688.1990,0.01258,-0.000000000462
209,0.5042,693.7780,0.01254,-0.000000000455
210,0.5082,699.2910,0.01246,-0.000000000448
211,0.5121,704.7920,0.01221,-0.000000000441
212,0.5161,710.4950,0.01227,-0.000000000434
213,0.5201,716.1080,0.01202,-0.000000000427
214,0.5242,721.8390,0.0124,-0.000000000421
215,0.5283,727.5170,0.01213,-0.000000000414
216,0.5324,733.2950,0.01216,-0.000000000408
217,0.5366,739.0170,0.01198,-0.000000000401
218,0.5408,745.0620,0.01201,-0.000000000395
219,0.5450,750.9550,0.01202,-0.000000000389
220,0.5493,756.7690,0.01177,-0.000000000383
221,0.5535,762.9220,0.01188,-0.000000000377
222,0.5579,769.0620,0.01166,-0.000000000371
223,0.5622,775.1620,0.01161,-0.000000000365
224,0.5666,781.3210,0.01158,-0.00000000036
225,0.5710,787.4850,0.01148,-0.000000000354
226,0.5755,793.6480,0.01116,-0.000000000348
227,0.5800,800.2190,0.01127,-0.000000000343
228,0.5845,806.6580,0.01132,-0.000000000338
229,0.5891,813.2050,0.01129,-0.000000000332
230,0.5937,819.5710,0.01104,-0.000000000327
231,0.5983,826.1640,0.01142,-0.000000000322
232,0.6030,832.8370,0.01107,-0.000000000317
233,0.6077,839.4990,0.01103,-0.000000000312
234,0.6124,845.9850,0.0110,-0.000000000307
235,0.6172,852.8120,0.01081,-0.000000000302
236,0.6220,859.7970,0.01078,-0.000000000298
237,0.6269,866.7940,0.01095,-0.000000000293
238,0.6318,873.8890,0.01071,-0.000000000288
239,0.6367,880.5110,0.01063,-0.000000000284
240,0.6417,887.8200,0.01061,-0.000000000279
241,0.6467,894.9740,0.01056,-0.000000000275
242,0.6518,902.1040,0.01043,-0.000000000271
243,0.6568,909.4220,0.01029,-0.000000000266
244,0.6620,916.7460,0.01019,-0.000000000262
245,0.6671,924.0140,0.01042,-0.000000000258
246,0.6724,931.5960,0.01016,-0.000000000254
247,0.6776,939.1290,0.01004,-0.00000000025
248,0.6829,946.7090,0.01004,-0.000000000246
249,0.6882,954.3480,0.01008,-0.000000000242
250,0.6936,962.2300,0.01017,-0.000000000238
251,0.6990,969.6110,0.01017,-0.000000000235
252,0.7045,977.6730,0.01005,-0.000000000231
253,0.7100,985.6000,0.00991,-0.000000000227
254,0.7155,993.2720,0.00991,-0.000000000224
255,0.7211,1001.4600,0.00973,-0.00000000022
256,0.7267,1009.4500,0.00995,-0.000000000217
257,0.7324,1017.9100,0.00984,-0.000000000213
258,0.7381,1026.3200,0.00985,-0.00000000021
259,0.7439,1034.6800,0.00978,-0.000000000207
260,0.7497,1042.7000,0.00967,-0.000000000204
261,0.7556,1051.3700,0.00964,-0.0000000002
262,0.7615,1060.1300,0.00962,-0.000000000197
263,0.7674,1068.6200,0.00946,-0.000000000194
264,0.7734,1077.0500,0.00944,-0.000000000191
265,0.7794,1086.1200,0.00926,-0.000000000188
266,0.7855,1094.9800,0.00947,-0.000000000185
267,0.7917,1103.8200,0.00929,-0.000000000182
268,0.7978,1113.2000,0.0092,-0.000000000179
269,0.8041,1122.0000,0.00942,-0.000000000176
270,0.8103,1131.3300,0.00921,-0.000000000174
271,0.8167,1140.7100,0.00915,-0.000000000171
272,0.8230,1149.9300,0.0089,-0.000000000168
273,0.8295,1159.5300,0.00889,-0.000000000165
274,0.8359,1168.7200,0.00898,-0.000000000163
275,0.8425,1178.7500,0.0087,-0.00000000016
276,0.8491,1188.7800,0.00885,-0.000000000158
277,0.8557,1198.1000,0.00906,-0.000000000155
278,0.8624,1208.1500,0.00886,-0.000000000153
279,0.8691,1218.1400,0.00895,-0.00000000015
280,0.8759,1228.1600,0.00853,-0.000000000148
281,0.8827,1238.2800,0.0091,-0.000000000146
282,0.8896,1248.2800,0.00901,-0.000000000143
283,0.8966,1259.1600,0.00883,-0.000000000141
284,0.9036,1269.3800,0.00881,-0.000000000139
285,0.9106,1280.0700,0.00852,-0.000000000137
286,0.9177,1290.7000,0.00823,-0.000000000134
287,0.9249,1301.1900,0.00867,-0.000000000132
288,0.9321,1311.7900,0.00869,-0.00000000013
289,0.9394,1323.1700,0.00835,-0.000000000128
290,0.9467,1334.2900,0.00836,-0.000000000126
291,0.9541,1345.4200,0.0090,-0.000000000124
292,0.9616,1356.3400,0.00849,-0.000000000122
293,0.9691,1367.6600,0.00822,-0.00000000012
294,0.9766,1379.5300,0.00831,-0.000000000118
295,0.9843,1391.0900,0.00828,-0.000000000116
296,0.9920,1402.4600,0.00827,-0.000000000114
297,0.9997,1414.6100,0.00815,-0.000000000113
298,1.0075,1425.0600,0.0073,-0.000000000111
299,1.0154,1438.1300,0.00811,-0.000000000109
300,1.0233,1449.9900,0.00824,-0.000000000107
301,1.0313,1462.3500,0.00836,-0.000000000106
302,1.0393,1475.1200,0.00831,-0.000000000104
303,1.0475,1487.7300,0.00817,-0.000000000102
304,1.0556,1500.2900,0.0081,-0.0000000001
305,1.0639,1512.9400,0.00806,-0.000000000099
306,1.0722,1526.4000,0.00796,-0.000000000097
307,1.0806,1538.9300,0.00821,-0.000000000096
308,1.0890,1551.5700,0.00806,-0.000000000094
309,1.0975,1565.7400,0.00783,-0.000000000093
310,1.1061,1578.8400,0.00787,-0.000000000091
311,1.1147,1592.0000,0.00793,-0.00000000009
312,1.1234,1605.4100,0.00785,-0.000000000088
313,1.1322,1619.3600,0.00831,-0.000000000087
314,1.1410,1633.0600,0.00806,-0.000000000085
315,1.1499,1647.8100,0.00802,-0.000000000084
316,1.1589,1662.0300,0.00795,-0.000000000083
317,1.1680,1676.4600,0.00778,-0.000000000081
318,1.1771,1691.0300,0.00797,-0.00000000008
319,1.1863,1705.3200,0.00766,-0.000000000079
320,1.1955,1719.9300,0.00823,-0.000000000077
321,1.2049,1734.8900,0.0076,-0.000000000076
322,1.2143,1751.0900,0.00761,-0.000000000075
323,1.2238,1765.8100,0.00751,-0.000000000074
324,1.2333,1781.7200,0.0079,-0.000000000072
325,1.2429,1797.6600,0.00809,-0.000000000071
326,1.2526,1813.8800,0.00827,-0.00000000007
327,1.2624,1828.6800,0.00763,-0.000000000069
328,1.2723,1845.9200,0.00762,-0.000000000068
329,1.2822,1862.1000,0.0078,-0.000000000067
330,1.2922,1878.1300,0.00784,-0.000000000066
331,1.3023,1894.3300,0.00797,-0.000000000065
332,1.3125,1911.0000,0.00754,-0.000000000063
333,1.3227,1928.6100,0.00805,-0.000000000062
334,1.3331,1945.1600,0.00817,-0.000000000061
335,1.3435,1963.5600,0.00758,-0.00000000006
336,1.3540,1980.5400,0.0076,-0.000000000059
337,1.3645,1997.8700,0.00775,-0.000000000058
338,1.3752,2015.8300,0.00776,-0.000000000057
339,1.3859,2033.6900,0.00821,-0.000000000056
340,1.3968,2052.8900,0.0078,-0.000000000056
341,1.4077,2072.1100,0.00806,-0.000000000055
342,1.4187,2091.1400,0.00781,-0.000000000054
343,1.4297,2111.1500,0.00853,-0.000000000053
344,1.4409,2129.2700,0.00792,-0.000000000052
345,1.4521,2148.9800,0.00772,-0.000000000051
346,1.4635,2168.2400,0.00802,-0.00000000005
347,1.4749,2189.1200,0.00758,-0.000000000049
348,1.4864,2209.1300,0.00792,-0.000000000048
349,1.4980,2230.2900,0.00817,-0.000000000048
350,1.5097,2250.1100,0.00842,-0.000000000047
351,1.5215,2271.6600,0.00815,-0.000000000046
352,1.5334,2292.6300,0.00785,-0.000000000045
353,1.5454,2313.1800,0.00751,-0.000000000045
354,1.5574,2335.6500,0.0074,-0.000000000044
355,1.5696,2358.1600,0.00781,-0.000000000043
356,1.5819,2379.1200,0.00768,-0.000000000042
357,1.5942,2402.5400,0.00746,-0.000000000042
358,1.6067,2425.8000,0.00755,-0.000000000041
359,1.6192,2449.5300,0.00797,-0.00000000004
360,1.6318,2471.6000,0.00773,-0.000000000039
361,1.6446,2496.8700,0.0076,-0.000000000039
362,1.6574,2521.5700,0.00774,-0.000000000038
363,1.6704,2544.3800,0.0084,-0.000000000037
364,1.6834,2568.7100,0.00841,-0.000000000037
365,1.6966,2594.0800,0.00751,-0.000000000036
366,1.7098,2619.5500,0.0084,-0.000000000036
367,1.7232,2645.1300,0.0080,-0.000000000035
368,1.7366,2670.7400,0.00802,-0.000000000034
369,1.7502,2698.4400,0.00836,-0.000000000034
370,1.7638,2725.3600,0.00745,-0.000000000033
371,1.7776,2751.0100,0.00816,-0.000000000033
372,1.7915,2780.3900,0.00895,-0.000000000032
373,1.8055,2807.2700,0.00769,-0.000000000031
374,1.8196,2836.1100,0.00854,-0.000000000031
375,1.8338,2865.6200,0.00873,-0.00000000003
376,1.8481,2890.9800,0.00794,-0.00000000003
377,1.8625,2922.3100,0.00872,-0.000000000029
378,1.8771,2953.8100,0.00884,-0.000000000029
379,1.8917,2983.5900,0.00882,-0.000000000028
380,1.9065,3014.4400,0.00847,-0.000000000028
381,1.9214,3045.0900,0.00903,-0.000000000027
382,1.9364,3077.5800,0.00836,-0.000000000027
383,1.9515,3109.5600,0.00934,-0.000000000026
384,1.9667,3144.4800,0.00903,-0.000000000026
385,1.9821,3173.7600,0.0099,-0.000000000025
386,1.9976,3207.6300,0.00867,-0.000000000025
387,2.0132,3242.4400,0.00944,-0.000000000024
388,2.0289,3278.3100,0.0095,-0.000000000024
389,2.0447,3313.8400,0.00913,-0.000000000023
390,2.0607,3348.5300,0.00917,-0.000000000023
391,2.0768,3387.5400,0.00971,-0.000000000023
392,2.0930,3422.7700,0.01057,-0.000000000022
393,2.1094,3463.6400,0.00952,-0.000000000022
394,2.1258,3496.1100,0.01034,-0.000000000021
395,2.1424,3542.4100,0.01002,-0.000000000021
396,2.1592,3577.3400,0.00893,-0.000000000021
397,2.1760,3623.5400,0.00989,-0.00000000002
398,2.1930,3660.9900,0.01027,-0.00000000002
399,2.2101,3702.0300,0.01026,-0.000000000019
400,2.2274,3743.9500,0.01009,-0.000000000019
401,2.2448,3790.0000,0.01106,-0.000000000019
402,2.2623,3833.0800,0.00999,-0.000000000018
403,2.2800,3874.1700,0.01097,-0.000000000018
404,2.2978,3923.2100,0.01111,-0.000000000018
405,2.3157,3970.3100,0.01101,-0.000000000017
406,2.3338,4017.1600,0.0109,-0.000000000017
407,2.3520,4065.4600,0.01003,-0.000000000017
408,2.3704,4112.5200,0.01128,-0.000000000016
409,2.3889,4164.6400,0.01117,-0.000000000016
410,2.4076,4215.8000,0.01123,-0.000000000016
411,2.4263,4269.0100,0.01079,-0.000000000015
412,2.4453,4319.1700,0.01227,-0.000000000015
413,2.4644,4373.1200,0.01235,-0.000000000015
414,2.4836,4428.2300,0.01181,-0.000000000014
415,2.5030,4483.8900,0.01208,-0.000000000014
416,2.5226,4539.8800,0.0125,-0.000000000014
417,2.5423,4599.0400,0.0129,-0.000000000014
418,2.5621,4664.6300,0.01348,-0.000000000013
419,2.5821,4715.5000,0.01321,-0.000000000013
420,2.6023,4787.6200,0.01486,-0.000000000013
421,2.6226,4848.1700,0.01419,-0.000000000013
422,2.6431,4914.5300,0.01291,-0.000000000012
423,2.6637,4981.1200,0.01398,-0.000000000012
424,2.6845,5045.0000,0.01534,-0.000000000012
425,2.7055,5121.7500,0.01516,-0.000000000011
426,2.7266,5190.9700,0.01344,-0.000000000011
427,2.7479,5263.8600,0.01488,-0.000000000011
428,2.7694,5334.4500,0.01538,-0.000000000011
429,2.7910,5421.4800,0.01498,-0.000000000011
430,2.8128,5498.8100,0.01608,-0.00000000001
431,2.8347,5575.7400,0.01441,-0.00000000001
432,2.8569,5666.1500,0.01651,-0.00000000001
433,2.8792,5742.8700,0.01716,-0.00000000001
434,2.9017,5828.4600,0.01663,-0.000000000009
435,2.9243,5921.6900,0.01729,-0.000000000009
436,2.9471,6005.0700,0.01702,-0.000000000009
437,2.9702,6110.0600,0.01789,-0.000000000009
438,2.9934,6210.6600,0.01744,-0.000000000009
439,3.0167,6299.9800,0.01796,-0.000000000008
440,3.0403,6409.8600,0.01822,-0.000000000008
441,3.0640,6510.4100,0.01817,-0.000000000008
442,3.0879,6619.2800,0.02041,-0.000000000008
443,3.1121,6733.8200,0.01954,-0.000000000008
444,3.1364,6853.1800,0.0204,-0.000000000007
445,3.1608,6973.2200,0.01987,-0.000000000007
446,3.1855,7102.1400,0.02106,-0.000000000007
447,3.2104,7217.9400,0.02194,-0.000000000007
448,3.2355,7370.6300,0.02328,-0.000000000007
449,3.2607,7494.5100,0.02204,-0.000000000007
450,3.2862,7624.5300,0.02442,-0.000000000006
451,3.3119,7775.0900,0.02398,-0.000000000006
452,3.3377,7941.7300,0.02426,-0.000000000006
453,3.3638,8099.3200,0.02477,-0.000000000006
