No.,FREQUENCY(MHz),Z,D,Cs
1,0.1000,338.0380,0.00007,0.000000004708
2,0.1008,335.5260,0.00012,0.000000004707
3,0.1016,332.9380,0.00013,0.000000004706
4,0.1024,330.4450,0.00027,0.000000004705
5,0.1032,327.9660,0.00026,0.000000004704
6,0.1040,325.4010,0.00026,0.000000004704
7,0.1048,322.9920,0.00041,0.000000004703
8,0.1056,320.4830,0.00025,0.000000004703
9,0.1064,318.1200,0.00039,0.000000004701
10,0.1073,315.7030,0.0006,0.000000004701
11,0.1081,313.2480,0.00064,0.000000004701
12,0.1089,310.9170,0.00035,0.000000004699
13,0.1098,308.6300,0.00051,0.000000004697
14,0.1106,306.1830,0.00082,0.000000004698
15,0.1115,303.9400,0.00059,0.000000004696
16,0.1124,301.6030,0.00073,0.000000004696
17,0.1133,299.2680,0.00089,0.000000004696
18,0.1141,297.0110,0.00084,0.000000004695
19,0.1150,294.7410,0.00095,0.000000004694
20,0.1159,292.5270,0.00082,0.000000004693
21,0.1168,290.3000,0.00087,0.000000004693
22,0.1177,288.1370,0.00099,0.000000004691
23,0.1187,285.8940,0.00094,0.000000004691
24,0.1196,283.7140,0.00104,0.000000004691
25,0.1205,281.6110,0.00101,0.000000004689
26,0.1215,279.4180,0.00112,0.00000000469
27,0.1224,277.3170,0.00116,0.000000004688
28,0.1234,275.1700,0.00122,0.000000004688
29,0.1243,273.1360,0.00109,0.000000004687
30,0.1253,271.0000,0.00122,0.000000004687
31,0.1263,268.9470,0.00126,0.000000004686
32,0.1273,266.9030,0.00138,0.000000004685
33,0.1283,264.8830,0.00132,0.000000004685
34,0.1293,262.8550,0.00125,0.000000004684
35,0.1303,260.8630,0.00133,0.000000004683
36,0.1313,258.8740,0.00138,0.000000004683
37,0.1323,256.9320,0.00138,0.000000004682
38,0.1334,254.9590,0.00143,0.000000004681
39,0.1344,253.0100,0.00154,0.000000004681
40,0.1354,251.1090,0.00139,0.00000000468
41,0.1365,249.1710,0.00148,0.000000004679
42,0.1376,247.2980,0.00146,0.000000004679
43,0.1386,245.3450,0.00142,0.000000004679
44,0.1397,243.4880,0.00158,0.000000004678
45,0.1408,241.6180,0.00154,0.000000004678
46,0.1419,239.8120,0.0015,0.000000004677
47,0.1430,237.9650,0.00164,0.000000004676
48,0.1441,236.1910,0.00156,0.000000004675
49,0.1453,234.3180,0.00164,0.000000004676
50,0.1464,232.5530,0.00167,0.000000004675
51,0.1475,230.7640,0.00165,0.000000004675
52,0.1487,229.0100,0.00175,0.000000004674
53,0.1499,227.2290,0.00161,0.000000004674
54,0.1510,225.5120,0.00169,0.000000004673
55,0.1522,223.7670,0.00169,0.000000004673
56,0.1534,222.0730,0.0018,0.000000004672
57,0.1546,220.3730,0.00176,0.000000004672
58,0.1558,218.6750,0.00168,0.000000004672
59,0.1570,217.0070,0.00177,0.000000004671
60,0.1582,215.3620,0.00177,0.00000000467
61,0.1595,213.7100,0.00167,0.00000000467
62,0.1607,212.0790,0.00172,0.00000000467
63,0.1620,210.4550,0.0018,0.000000004669
64,0.1632,208.8440,0.00174,0.000000004669
65,0.1645,207.2200,0.00164,0.000000004669
66,0.1658,205.6550,0.00176,0.000000004668
67,0.1671,204.0650,0.00165,0.000000004668
68,0.1684,202.4920,0.00177,0.000000004668
69,0.1697,200.9420,0.00169,0.000000004667
70,0.1710,199.4110,0.00179,0.000000004667
71,0.1724,197.8760,0.00176,0.000000004666
72,0.1737,196.3680,0.00171,0.000000004666
73,0.1751,194.8540,0.00166,0.000000004666
74,0.1764,193.3540,0.00173,0.000000004665
75,0.1778,191.8730,0.00173,0.000000004665
76,0.1792,190.4040,0.00176,0.000000004665
77,0.1806,188.9400,0.00168,0.000000004664
78,0.1820,187.4840,0.0016,0.000000004664
79,0.1834,186.0470,0.00161,0.000000004664
80,0.1849,184.6130,0.00159,0.000000004663
81,0.1863,183.2000,0.00163,0.000000004663
82,0.1878,181.7940,0.00157,0.000000004663
83,0.1892,180.3980,0.00163,0.000000004662
84,0.1907,178.9900,0.00154,0.000000004662
85,0.1922,177.6210,0.00156,0.000000004662
86,0.1937,176.2650,0.00155,0.000000004661
87,0.1952,174.9100,0.00146,0.000000004661
88,0.1967,173.5460,0.00153,0.000000004662
89,0.1983,172.2230,0.00143,0.000000004661
90,0.1998,170.8900,0.00152,0.000000004661
91,0.2014,169.5800,0.00149,0.00000000466
92,0.2030,168.2780,0.00144,0.00000000466
93,0.2045,166.9770,0.00143,0.00000000466
94,0.2061,165.6950,0.00139,0.00000000466
95,0.2077,164.4140,0.00134,0.00000000466
96,0.2094,163.1460,0.00133,0.00000000466
97,0.2110,161.8900,0.0013,0.000000004659
98,0.2127,160.6380,0.00128,0.000000004659
99,0.2143,159.3850,0.00128,0.000000004659
100,0.2160,158.1720,0.00129,0.000000004659
101,0.2177,156.9520,0.00125,0.000000004659
102,0.2194,155.7410,0.00126,0.000000004658
103,0.2211,154.5370,0.00126,0.000000004658
104,0.2228,153.3440,0.00121,0.000000004658
105,0.2246,152.1550,0.00126,0.000000004658
106,0.2263,150.9840,0.00118,0.000000004658
107,0.2281,149.8190,0.00114,0.000000004658
108,0.2299,148.6710,0.00108,0.000000004657
109,0.2316,147.5250,0.0011,0.000000004657
110,0.2335,146.3800,0.0011,0.000000004657
111,0.2353,145.2530,0.00107,0.000000004657
112,0.2371,144.1320,0.00106,0.000000004657
113,0.2390,143.0220,0.00101,0.000000004657
114,0.2408,141.9090,0.00103,0.000000004657
115,0.2427,140.8100,0.00094,0.000000004657
116,0.2446,139.7270,0.00101,0.000000004657
117,0.2465,138.6410,0.0010,0.000000004657
118,0.2484,137.5720,0.00099,0.000000004657
119,0.2504,136.5080,0.00094,0.000000004657
120,0.2523,135.4640,0.00093,0.000000004656
121,0.2543,134.4110,0.00094,0.000000004656
122,0.2563,133.3710,0.00089,0.000000004656
123,0.2583,132.3420,0.00088,0.000000004656
124,0.2603,131.3180,0.00088,0.000000004656
125,0.2623,130.2950,0.00086,0.000000004656
126,0.2644,129.2940,0.00084,0.000000004656
127,0.2665,128.3010,0.00084,0.000000004656
128,0.2685,127.3070,0.00082,0.000000004656
129,0.2706,126.3110,0.00075,0.000000004656
130,0.2727,125.3400,0.00077,0.000000004656
131,0.2749,124.3710,0.00081,0.000000004656
132,0.2770,123.4040,0.00073,0.000000004656
133,0.2792,122.4530,0.00072,0.000000004655
134,0.2814,121.5010,0.00072,0.000000004656
135,0.2836,120.5670,0.00072,0.000000004655
136,0.2858,119.6290,0.0007,0.000000004656
137,0.2880,118.7090,0.00066,0.000000004655
138,0.2903,117.7870,0.00064,0.000000004655
139,0.2925,116.8710,0.00067,0.000000004655
140,0.2948,115.9680,0.00066,0.000000004655
141,0.2971,115.0710,0.0006,0.000000004655
142,0.2994,114.1810,0.00068,0.000000004655
143,0.3018,113.2980,0.00066,0.000000004655
144,0.3041,112.4210,0.00062,0.000000004655
145,0.3065,111.5500,0.00062,0.000000004655
146,0.3089,110.6880,0.0006,0.000000004655
147,0.3113,109.8330,0.00058,0.000000004655
148,0.3137,108.9810,0.00061,0.000000004655
149,0.3162,108.1380,0.00057,0.000000004655
150,0.3187,107.2990,0.00054,0.000000004655
151,0.3211,106.4690,0.00053,0.000000004655
152,0.3236,105.6420,0.00054,0.000000004655
153,0.3262,104.8230,0.00058,0.000000004655
154,0.3287,104.0090,0.00053,0.000000004655
155,0.3313,103.2000,0.0006,0.000000004655
156,0.3339,102.4090,0.00056,0.000000004655
157,0.3365,101.6130,0.0005,0.000000004655
158,0.3391,100.8270,0.00051,0.000000004655
159,0.3418,100.0470,0.00052,0.000000004655
160,0.3444,99.2719,0.00051,0.000000004655
161,0.3471,98.5025,0.00051,0.000000004655
162,0.3498,97.7358,0.00048,0.000000004655
163,0.3526,96.9807,0.00047,0.000000004655
164,0.3553,96.2311,0.0005,0.000000004655
165,0.3581,95.4844,0.00052,0.000000004655
166,0.3609,94.7422,0.00045,0.000000004655
167,0.3637,94.0098,0.00049,0.000000004655
168,0.3665,93.2852,0.00049,0.000000004655
169,0.3694,92.5563,0.00048,0.000000004655
170,0.3723,91.8379,0.00048,0.000000004655
171,0.3752,91.1251,0.00046,0.000000004655
172,0.3781,90.4209,0.00046,0.000000004655
173,0.3811,89.7229,0.00045,0.000000004655
174,0.3841,89.0272,0.00047,0.000000004655
175,0.3870,88.3385,0.00044,0.000000004655
176,0.3901,87.6489,0.00046,0.000000004655
177,0.3931,86.9721,0.00046,0.000000004655
178,0.3962,86.2973,0.00045,0.000000004655
179,0.3993,85.6269,0.00045,0.000000004655
180,0.4024,84.9650,0.00045,0.000000004655
181,0.4055,84.3094,0.00044,0.000000004655
182,0.4087,83.6543,0.00049,0.000000004655
183,0.4119,83.0050,0.00044,0.000000004655
184,0.4151,82.3613,0.00045,0.000000004655
185,0.4184,81.7189,0.00046,0.000000004655
186,0.4216,81.0868,0.00046,0.000000004655
187,0.4249,80.4579,0.00044,0.000000004655
188,0.4282,79.8361,0.00046,0.000000004655
189,0.4316,79.2179,0.00044,0.000000004655
190,0.4349,78.6048,0.00043,0.000000004655
191,0.4383,77.9906,0.00047,0.000000004656
192,0.4418,77.3862,0.00047,0.000000004656
193,0.4452,76.7863,0.00046,0.000000004656
194,0.4487,76.1951,0.00047,0.000000004655
195,0.4522,75.6016,0.00043,0.000000004656
196,0.4557,75.0167,0.0005,0.000000004655
197,0.4593,74.4344,0.00045,0.000000004656
198,0.4629,73.8566,0.0005,0.000000004656
199,0.4665,73.2841,0.00044,0.000000004656
200,0.4701,72.7165,0.00047,0.000000004656
201,0.4738,72.1530,0.00051,0.000000004656
202,0.4775,71.5914,0.00045,0.000000004656
203,0.4812,71.0384,0.00051,0.000000004656
204,0.4850,70.4861,0.00049,0.000000004656
205,0.4888,69.9401,0.00048,0.000000004656
206,0.4926,69.3971,0.0005,0.000000004656
207,0.4964,68.8593,0.0005,0.000000004656
208,0.5003,68.3256,0.0005,0.000000004656
209,0.5042,67.7956,0.00048,0.000000004656
210,0.5082,67.2687,0.00055,0.000000004656
211,0.5121,66.7482,0.00051,0.000000004656
212,0.5161,66.2302,0.00052,0.000000004656
213,0.5201,65.7163,0.00055,0.000000004656
214,0.5242,65.2055,0.00052,0.000000004656
215,0.5283,64.6993,0.00055,0.000000004656
216,0.5324,64.1999,0.00054,0.000000004656
217,0.5366,63.6983,0.00054,0.000000004656
218,0.5408,63.2056,0.00058,0.000000004656
219,0.5450,62.7164,0.00057,0.000000004656
220,0.5493,62.2299,0.00057,0.000000004656
221,0.5535,61.7436,0.0006,0.000000004657
222,0.5579,61.2658,0.00058,0.000000004657
223,0.5622,60.7922,0.00061,0.000000004657
224,0.5666,60.3212,0.00059,0.000000004657
225,0.5710,59.8520,0.00058,0.000000004657
226,0.5755,59.3853,0.00062,0.000000004657
227,0.5800,58.9252,0.00063,0.000000004657
228,0.5845,58.4696,0.00062,0.000000004657
229,0.5891,58.0144,0.00065,0.000000004657
230,0.5937,57.5623,0.00062,0.000000004657
231,0.5983,57.1194,0.00068,0.000000004657
232,0.6030,56.6738,0.00067,0.000000004657
233,0.6077,56.2343,0.00068,0.000000004657
234,0.6124,55.7998,0.00066,0.000000004657
235,0.6172,55.3640,0.0007,0.000000004658
236,0.6220,54.9342,0.00069,0.000000004658
237,0.6269,54.5073,0.00069,0.000000004658
238,0.6318,54.0858,0.00071,0.000000004658
239,0.6367,53.6662,0.00073,0.000000004658
240,0.6417,53.2490,0.00073,0.000000004658
241,0.6467,52.8358,0.00073,0.000000004658
242,0.6518,52.4248,0.00075,0.000000004658
243,0.6568,52.0176,0.00075,0.000000004658
244,0.6620,51.6137,0.00074,0.000000004658
245,0.6671,51.2132,0.00078,0.000000004658
246,0.6724,50.8144,0.00077,0.000000004658
247,0.6776,50.4202,0.00079,0.000000004658
248,0.6829,50.0295,0.00079,0.000000004658
249,0.6882,49.6402,0.00082,0.000000004659
250,0.6936,49.2540,0.00079,0.000000004659
251,0.6990,48.8715,0.00083,0.000000004659
252,0.7045,48.4916,0.00085,0.000000004659
253,0.7100,48.1151,0.00086,0.000000004659
254,0.7155,47.7407,0.00087,0.000000004659
255,0.7211,47.3698,0.00088,0.000000004659
256,0.7267,47.0020,0.00087,0.000000004659
257,0.7324,46.6361,0.0009,0.00000000466
258,0.7381,46.2748,0.00093,0.00000000466
259,0.7439,45.9150,0.00093,0.00000000466
260,0.7497,45.5577,0.00092,0.00000000466
261,0.7556,45.2046,0.00089,0.00000000466
262,0.7615,44.8516,0.00094,0.00000000466
263,0.7674,44.5044,0.00094,0.00000000466
264,0.7734,44.1575,0.00097,0.00000000466
265,0.7794,43.8149,0.0010,0.00000000466
266,0.7855,43.4736,0.00098,0.000000004661
267,0.7917,43.1348,0.00101,0.000000004661
268,0.7978,42.8007,0.00102,0.000000004661
269,0.8041,42.4668,0.00103,0.000000004661
270,0.8103,42.1370,0.00103,0.000000004661
271,0.8167,41.8091,0.00106,0.000000004661
272,0.8230,41.4835,0.0011,0.000000004661
273,0.8295,41.1601,0.00108,0.000000004662
274,0.8359,40.8395,0.00112,0.000000004662
275,0.8425,40.5227,0.0011,0.000000004662
276,0.8491,40.2080,0.00113,0.000000004662
277,0.8557,39.8939,0.00116,0.000000004662
278,0.8624,39.5803,0.00117,0.000000004663
279,0.8691,39.2757,0.00117,0.000000004663
280,0.8759,38.9692,0.00117,0.000000004663
281,0.8827,38.6667,0.00118,0.000000004663
282,0.8896,38.3655,0.00124,0.000000004663
283,0.8966,38.0647,0.00124,0.000000004664
284,0.9036,37.7712,0.00133,0.000000004663
285,0.9106,37.4686,0.00143,0.000000004665
286,0.9177,37.1726,0.00135,0.000000004665
287,0.9249,36.8956,0.00132,0.000000004664
288,0.9321,36.6079,0.00128,0.000000004664
289,0.9394,36.3217,0.00131,0.000000004665
290,0.9467,36.0388,0.00131,0.000000004665
291,0.9541,35.7581,0.00135,0.000000004665
292,0.9616,35.4803,0.00136,0.000000004665
293,0.9691,35.2027,0.00136,0.000000004665
294,0.9766,34.9293,0.00141,0.000000004665
295,0.9843,34.6553,0.0014,0.000000004666
296,0.9920,34.3856,0.00142,0.000000004666
297,0.9997,34.1182,0.00144,0.000000004666
298,1.0075,33.8515,0.00174,0.000000004667
299,1.0154,33.5871,0.00143,0.000000004667
300,1.0233,33.3264,0.00148,0.000000004667
301,1.0313,33.0657,0.00149,0.000000004667
302,1.0393,32.8095,0.00153,0.000000004667
303,1.0475,32.5504,0.00153,0.000000004668
304,1.0556,32.2986,0.00153,0.000000004668
305,1.0639,32.0450,0.00155,0.000000004668
306,1.0722,31.7949,0.00159,0.000000004669
307,1.0806,31.5463,0.0016,0.000000004669
308,1.0890,31.3010,0.00162,0.000000004669
309,1.0975,31.0553,0.00162,0.00000000467
310,1.1061,30.8137,0.00167,0.00000000467
311,1.1147,30.5735,0.00168,0.00000000467
312,1.1234,30.3349,0.00168,0.00000000467
313,1.1322,30.0967,0.00173,0.000000004671
314,1.1410,29.8627,0.00175,0.000000004671
315,1.1499,29.6300,0.00174,0.000000004671
316,1.1589,29.3976,0.00178,0.000000004672
317,1.1680,29.1671,0.00181,0.000000004672
318,1.1771,28.9388,0.00181,0.000000004672
319,1.1863,28.7123,0.00184,0.000000004673
320,1.1955,28.4893,0.00187,0.000000004673
321,1.2049,28.2651,0.00187,0.000000004673
322,1.2143,28.0432,0.00192,0.000000004674
323,1.2238,27.8239,0.00194,0.000000004674
324,1.2333,27.6075,0.00197,0.000000004674
325,1.2429,27.3915,0.0020,0.000000004675
326,1.2526,27.1778,0.00201,0.000000004675
327,1.2624,26.9647,0.00201,0.000000004676
328,1.2723,26.7532,0.00205,0.000000004676
329,1.2822,26.5438,0.00209,0.000000004676
330,1.2922,26.3361,0.00209,0.000000004677
331,1.3023,26.1291,0.00212,0.000000004677
332,1.3125,25.9233,0.00215,0.000000004678
333,1.3227,25.7220,0.00219,0.000000004678
334,1.3331,25.5191,0.0022,0.000000004678
335,1.3435,25.3200,0.00223,0.000000004679
336,1.3540,25.1203,0.00227,0.000000004679
337,1.3645,24.9251,0.00231,0.00000000468
338,1.3752,24.7288,0.00232,0.00000000468
339,1.3859,24.5358,0.00233,0.00000000468
340,1.3968,24.3417,0.00238,0.000000004681
341,1.4077,24.1516,0.00239,0.000000004681
342,1.4187,23.9613,0.00243,0.000000004682
343,1.4297,23.7747,0.00245,0.000000004682
344,1.4409,23.5873,0.00248,0.000000004683
345,1.4521,23.4034,0.00251,0.000000004683
346,1.4635,23.2181,0.00251,0.000000004684
347,1.4749,23.0358,0.00255,0.000000004684
348,1.4864,22.8556,0.00257,0.000000004685
349,1.4980,22.6757,0.00262,0.000000004685
350,1.5097,22.4980,0.00266,0.000000004686
351,1.5215,22.3203,0.00267,0.000000004687
352,1.5334,22.1450,0.0027,0.000000004687
353,1.5454,21.9704,0.00271,0.000000004688
354,1.5574,21.7979,0.00275,0.000000004688
355,1.5696,21.6259,0.00279,0.000000004689
356,1.5819,21.4552,0.0028,0.000000004689
357,1.5942,21.2861,0.00283,0.00000000469
358,1.6067,21.1185,0.00289,0.000000004691
359,1.6192,20.9523,0.00291,0.000000004691
360,1.6318,20.7877,0.00295,0.000000004692
361,1.6446,20.6231,0.00299,0.000000004693
362,1.6574,20.4609,0.0030,0.000000004693
363,1.6704,20.2988,0.00305,0.000000004694
364,1.6834,20.1392,0.0031,0.000000004695
365,1.6966,19.9791,0.00312,0.000000004695
366,1.7098,19.8220,0.00314,0.000000004696
367,1.7232,19.6649,0.00319,0.000000004697
368,1.7366,19.5098,0.00322,0.000000004698
369,1.7502,19.3553,0.00325,0.000000004698
370,1.7638,19.2032,0.00331,0.000000004699
371,1.7776,19.0503,0.00334,0.0000000047
372,1.7915,18.8996,0.00339,0.000000004701
373,1.8055,18.7501,0.0034,0.000000004701
374,1.8196,18.6015,0.00346,0.000000004702
375,1.8338,18.4541,0.00349,0.000000004703
376,1.8481,18.3085,0.00352,0.000000004704
377,1.8625,18.1637,0.00355,0.000000004705
378,1.8771,18.0190,0.00364,0.000000004705
379,1.8917,17.8760,0.00368,0.000000004707
380,1.9065,17.7346,0.00367,0.000000004707
381,1.9214,17.5931,0.00373,0.000000004708
382,1.9364,17.4535,0.00379,0.000000004709
383,1.9515,17.3144,0.00384,0.00000000471
384,1.9667,17.1774,0.00388,0.000000004711
385,1.9821,17.0409,0.00391,0.000000004712
386,1.9976,16.9051,0.00399,0.000000004713
387,2.0132,16.7703,0.00396,0.000000004714
388,2.0289,16.6369,0.00407,0.000000004715
389,2.0447,16.5039,0.00409,0.000000004716
390,2.0607,16.3728,0.00414,0.000000004717
391,2.0768,16.2418,0.0042,0.000000004718
392,2.0930,16.1129,0.00426,0.000000004719
393,2.1094,15.9836,0.0043,0.000000004721
394,2.1258,15.8566,0.00435,0.000000004722
395,2.1424,15.7297,0.00438,0.000000004723
396,2.1592,15.6040,0.00443,0.000000004724
397,2.1760,15.4790,0.00453,0.000000004725
398,2.1930,15.3559,0.00456,0.000000004726
399,2.2101,15.2325,0.00461,0.000000004728
400,2.2274,15.1109,0.00467,0.000000004729
401,2.2448,14.9897,0.00471,0.00000000473
402,2.2623,14.8693,0.00477,0.000000004731
403,2.2800,14.7498,0.0048,0.000000004733
404,2.2978,14.6317,0.00489,0.000000004734
405,2.3157,14.5146,0.00491,0.000000004735
406,2.3338,14.3976,0.00497,0.000000004737
407,2.3520,14.2824,0.00504,0.000000004738
408,2.3704,14.1674,0.0051,0.000000004739
409,2.3889,14.0534,0.00515,0.000000004741
410,2.4076,13.9403,0.00519,0.000000004742
411,2.4263,13.8282,0.00527,0.000000004744
412,2.4453,13.7166,0.00534,0.000000004745
413,2.4644,13.6062,0.00536,0.000000004747
414,2.4836,13.4966,0.00545,0.000000004748
415,2.5030,13.3872,0.00549,0.00000000475
416,2.5226,13.2788,0.00554,0.000000004751
417,2.5423,13.1712,0.00561,0.000000004753
418,2.5621,13.0647,0.0057,0.000000004755
419,2.5821,12.9592,0.00574,0.000000004756
420,2.6023,12.8539,0.00582,0.000000004758
421,2.6226,12.7498,0.00587,0.00000000476
422,2.6431,12.6466,0.00599,0.000000004761
423,2.6637,12.5444,0.00604,0.000000004763
424,2.6845,12.4427,0.00609,0.000000004765
425,2.7055,12.3412,0.00616,0.000000004767
426,2.7266,12.2406,0.00622,0.000000004769
427,2.7479,12.1414,0.00634,0.00000000477
428,2.7694,12.0414,0.00643,0.000000004773
429,2.7910,11.9441,0.00652,0.000000004774
430,2.8128,11.8458,0.00657,0.000000004777
431,2.8347,11.7493,0.00666,0.000000004779
432,2.8569,11.6536,0.0067,0.000000004781
433,2.8792,11.5588,0.00677,0.000000004782
434,2.9017,11.4637,0.0069,0.000000004785
435,2.9243,11.3695,0.00704,0.000000004787
436,2.9471,11.2765,0.0071,0.000000004789
437,2.9702,11.1837,0.00721,0.000000004791
438,2.9934,11.0919,0.00732,0.000000004794
439,3.0167,11.0010,0.0074,0.000000004796
440,3.0403,10.9106,0.00747,0.000000004798
441,3.0640,10.8208,0.00756,0.0000000048
442,3.0879,10.7314,0.00766,0.000000004803
443,3.1121,10.6427,0.00779,0.000000004805
444,3.1364,10.5549,0.00788,0.000000004808
445,3.1608,10.4674,0.00799,0.000000004811
446,3.1855,10.3807,0.00808,0.000000004813
447,3.2104,10.2951,0.00819,0.000000004816
448,3.2355,10.2094,0.00829,0.000000004818
449,3.2607,10.1250,0.0084,0.000000004821
450,3.2862,10.0411,0.00846,0.000000004824
451,3.3119,9.95723,0.0086,0.000000004826
452,3.3377,9.8744,0.00868,0.000000004829
453,3.3638,9.79232,0.00881,0.000000004832
454,3.3900,9.71018,0.00894,0.000000004835
455,3.4165,9.6297,0.00904,0.000000004838
456,3.4432,9.54899,0.00917,0.000000004841
457,3.4701,9.46862,0.00928,0.000000004844
458,3.4972,9.38947,0.00946,0.000000004847
459,3.5245,9.31091,0.00959,0.00000000485
460,3.5520,9.23203,0.00966,0.000000004854
461,3.5797,9.15513,0.00976,0.000000004857
462,3.6077,9.07761,0.0099,0.00000000486
463,3.6358,9.0012,0.0100,0.000000004863
464,3.6642,8.92542,0.0102,0.000000004867
465,3.6929,8.84944,0.01025,0.00000000487
466,3.7217,8.77485,0.0104,0.000000004874
467,3.7507,8.70069,0.01051,0.000000004877
468,3.7800,8.62709,0.01066,0.000000004881
469,3.8095,8.55307,0.01085,0.000000004885
470,3.8393,8.48049,0.0109,0.000000004888
471,3.8693,8.40803,0.01106,0.000000004892
472,3.8995,8.33603,0.01122,0.000000004896
473,3.9299,8.26516,0.0113,0.0000000049
474,3.9606,8.19398,0.01143,0.000000004904
475,3.9915,8.12405,0.01158,0.000000004908
476,4.0227,8.05414,0.01176,0.000000004913
